Price,Adj Close,Close,High,Low,Open,Volume
Ticker,RAMANEWS.NS,RAMANEWS.NS,RAMANEWS.NS,RAMANEWS.NS,RAMANEWS.NS,RAMANEWS.NS
Date,,,,,,
2022-10-10,16.200000762939453,16.200000762939453,16.299999237060547,15.850000381469727,15.899999618530273,17341
2022-10-11,16.100000381469727,16.100000381469727,16.200000762939453,16.0,16.200000762939453,8434
2022-10-12,16.0,16.0,16.450000762939453,15.899999618530273,16.450000762939453,5583
2022-10-13,15.899999618530273,15.899999618530273,16.299999237060547,15.75,16.0,15151
2022-10-14,16.0,16.0,16.25,15.850000381469727,15.949999809265137,10072
2022-10-17,15.5,15.5,16.200000762939453,15.100000381469727,16.200000762939453,19366
2022-10-18,15.5,15.5,15.850000381469727,15.25,15.550000190734863,24866
2022-10-19,15.5,15.5,15.800000190734863,15.449999809265137,15.800000190734863,20227
2022-10-20,15.449999809265137,15.449999809265137,15.649999618530273,15.300000190734863,15.449999809265137,7802
2022-10-21,15.350000381469727,15.350000381469727,15.699999809265137,15.25,15.449999809265137,15545
2022-10-24,15.600000381469727,15.600000381469727,15.649999618530273,15.149999618530273,15.649999618530273,4690
2022-10-25,15.449999809265137,15.449999809265137,15.699999809265137,15.350000381469727,15.649999618530273,28765
2022-10-27,15.449999809265137,15.449999809265137,15.949999809265137,15.25,15.449999809265137,48971
2022-10-28,15.949999809265137,15.949999809265137,16.049999237060547,15.399999618530273,15.75,82399
2022-10-31,15.800000190734863,15.800000190734863,16.25,15.699999809265137,15.699999809265137,33929
2022-11-01,15.75,15.75,16.0,15.600000381469727,15.649999618530273,26661
2022-11-02,15.550000190734863,15.550000190734863,16.0,15.5,16.0,12098
2022-11-03,15.350000381469727,15.350000381469727,15.699999809265137,15.300000190734863,15.550000190734863,42240
2022-11-04,16.0,16.0,16.25,15.350000381469727,15.699999809265137,45787
2022-11-07,16.049999237060547,16.049999237060547,16.25,15.800000190734863,16.0,11208
2022-11-09,16.25,16.25,17.0,15.800000190734863,16.25,59057
2022-11-10,16.399999618530273,16.399999618530273,16.950000762939453,16.25,16.25,68669
2022-11-11,15.949999809265137,15.949999809265137,16.75,15.75,16.399999618530273,45947
2022-11-14,15.75,15.75,16.100000381469727,15.75,15.949999809265137,16114
2022-11-15,15.600000381469727,15.600000381469727,15.949999809265137,15.5,15.800000190734863,28674
2022-11-16,15.449999809265137,15.449999809265137,15.75,15.350000381469727,15.550000190734863,24171
2022-11-17,15.600000381469727,15.600000381469727,15.800000190734863,15.300000190734863,15.5,57621
2022-11-18,15.399999618530273,15.399999618530273,15.75,15.399999618530273,15.600000381469727,33825
2022-11-21,15.100000381469727,15.100000381469727,15.550000190734863,15.0,15.300000190734863,45678
2022-11-22,15.25,15.25,15.449999809265137,15.100000381469727,15.100000381469727,16330
2022-11-23,15.300000190734863,15.300000190734863,15.600000381469727,15.100000381469727,15.25,32621
2022-11-24,15.399999618530273,15.399999618530273,15.600000381469727,15.25,15.600000381469727,8679
2022-11-25,15.600000381469727,15.600000381469727,15.800000190734863,15.25,15.449999809265137,26842
2022-11-28,15.399999618530273,15.399999618530273,15.850000381469727,15.350000381469727,15.75,13940
2022-11-29,15.600000381469727,15.600000381469727,15.800000190734863,15.149999618530273,15.800000190734863,18241
2022-11-30,15.449999809265137,15.449999809265137,15.699999809265137,15.350000381469727,15.600000381469727,34230
2022-12-01,15.100000381469727,15.100000381469727,15.699999809265137,14.850000381469727,15.449999809265137,118291
2022-12-02,15.100000381469727,15.100000381469727,15.300000190734863,15.0,15.149999618530273,74781
2022-12-05,15.350000381469727,15.350000381469727,15.600000381469727,15.100000381469727,15.100000381469727,88485
2022-12-06,15.149999618530273,15.149999618530273,15.550000190734863,15.050000190734863,15.350000381469727,50722
2022-12-07,15.199999809265137,15.199999809265137,15.350000381469727,15.050000190734863,15.350000381469727,55630
2022-12-08,15.25,15.25,15.300000190734863,15.050000190734863,15.199999809265137,18314
2022-12-09,15.050000190734863,15.050000190734863,15.399999618530273,15.050000190734863,15.149999618530273,57552
2022-12-12,15.050000190734863,15.050000190734863,15.550000190734863,14.800000190734863,15.550000190734863,16814
2022-12-13,16.100000381469727,16.100000381469727,17.0,15.050000190734863,15.050000190734863,531582
2022-12-14,16.100000381469727,16.100000381469727,16.450000762939453,16.0,16.299999237060547,54873
2022-12-15,15.300000190734863,15.300000190734863,16.200000762939453,14.350000381469727,16.200000762939453,236643
2022-12-16,15.300000190734863,15.300000190734863,15.699999809265137,15.100000381469727,15.449999809265137,40749
2022-12-19,15.899999618530273,15.899999618530273,16.299999237060547,15.149999618530273,15.699999809265137,143532
2022-12-20,16.5,16.5,17.5,15.699999809265137,15.899999618530273,763882
2022-12-21,15.300000190734863,15.300000190734863,17.0,15.149999618530273,16.75,281801
2022-12-22,15.050000190734863,15.050000190734863,15.649999618530273,14.800000190734863,15.149999618530273,62243
2022-12-23,14.5,14.5,15.0,14.399999618530273,15.0,78446
2022-12-26,15.0,15.0,15.149999618530273,14.5,14.5,41443
2022-12-27,15.100000381469727,15.100000381469727,15.399999618530273,14.899999618530273,14.899999618530273,30567
2022-12-28,15.25,15.25,15.5,15.100000381469727,15.399999618530273,51949
2022-12-29,15.199999809265137,15.199999809265137,15.600000381469727,15.0,15.050000190734863,59111
2022-12-30,15.399999618530273,15.399999618530273,15.949999809265137,15.100000381469727,15.5,166652
2023-01-02,16.149999618530273,16.149999618530273,16.299999237060547,15.350000381469727,15.600000381469727,203781
2023-01-03,16.100000381469727,16.100000381469727,16.299999237060547,15.649999618530273,16.149999618530273,64228
2023-01-04,15.649999618530273,15.649999618530273,16.149999618530273,15.600000381469727,16.149999618530273,50815
2023-01-05,15.649999618530273,15.649999618530273,15.949999809265137,15.5,15.699999809265137,14660
2023-01-06,15.649999618530273,15.649999618530273,15.949999809265137,15.649999618530273,15.649999618530273,12114
2023-01-09,15.5,15.5,16.0,15.25,15.949999809265137,28002
2023-01-10,15.300000190734863,15.300000190734863,15.75,15.149999618530273,15.5,46865
2023-01-11,15.399999618530273,15.399999618530273,15.899999618530273,15.399999618530273,15.5,15125
2023-01-12,15.300000190734863,15.300000190734863,15.75,15.199999809265137,15.5,11948
2023-01-13,15.350000381469727,15.350000381469727,15.449999809265137,15.25,15.25,23406
2023-01-16,15.300000190734863,15.300000190734863,15.649999618530273,15.199999809265137,15.350000381469727,27323
2023-01-17,15.399999618530273,15.399999618530273,15.550000190734863,15.199999809265137,15.199999809265137,28512
2023-01-18,15.25,15.25,15.699999809265137,15.199999809265137,15.699999809265137,11835
2023-01-19,15.100000381469727,15.100000381469727,15.5,14.949999809265137,15.199999809265137,22487
2023-01-20,15.199999809265137,15.199999809265137,15.449999809265137,15.100000381469727,15.100000381469727,14616
2023-01-23,15.100000381469727,15.100000381469727,15.449999809265137,15.100000381469727,15.449999809265137,13397
2023-01-24,14.949999809265137,14.949999809265137,15.300000190734863,14.800000190734863,15.149999618530273,31804
2023-01-25,14.800000190734863,14.800000190734863,15.0,14.649999618530273,14.899999618530273,25203
2023-01-27,14.300000190734863,14.300000190734863,14.850000381469727,14.199999809265137,14.800000190734863,40809
2023-01-30,14.300000190734863,14.300000190734863,14.699999809265137,14.25,14.350000381469727,19136
2023-01-31,14.300000190734863,14.300000190734863,14.5,14.25,14.25,64344
2023-02-01,14.050000190734863,14.050000190734863,14.5,13.899999618530273,14.5,41690
2023-02-02,14.100000381469727,14.100000381469727,14.25,13.949999809265137,14.0,41543
2023-02-03,13.850000381469727,13.850000381469727,14.350000381469727,13.600000381469727,14.350000381469727,28025
2023-02-06,13.649999618530273,13.649999618530273,14.25,13.600000381469727,13.800000190734863,37385
2023-02-07,13.649999618530273,13.649999618530273,14.0,13.550000190734863,13.75,24125
2023-02-08,13.800000190734863,13.800000190734863,14.0,13.649999618530273,14.0,28223
2023-02-09,13.899999618530273,13.899999618530273,14.0,13.649999618530273,13.800000190734863,33284
2023-02-10,13.800000190734863,13.800000190734863,14.100000381469727,13.75,13.899999618530273,21245
2023-02-13,13.649999618530273,13.649999618530273,13.899999618530273,13.600000381469727,13.649999618530273,25381
2023-02-14,13.550000190734863,13.550000190734863,13.850000381469727,13.300000190734863,13.800000190734863,38443
2023-02-15,13.300000190734863,13.300000190734863,13.550000190734863,13.25,13.550000190734863,28901
2023-02-16,13.300000190734863,13.300000190734863,13.5,13.199999809265137,13.300000190734863,11976
2023-02-17,13.5,13.5,13.550000190734863,13.449999809265137,13.5,15786
2023-02-20,13.399999618530273,13.399999618530273,13.899999618530273,13.350000381469727,13.899999618530273,15491
2023-02-21,13.199999809265137,13.199999809265137,13.600000381469727,13.149999618530273,13.600000381469727,6447
2023-02-22,13.300000190734863,13.300000190734863,13.5,12.850000381469727,13.350000381469727,44764
2023-02-23,13.100000381469727,13.100000381469727,13.5,13.050000190734863,13.5,20511
2023-02-24,13.0,13.0,13.300000190734863,12.899999618530273,13.300000190734863,35307
2023-02-27,11.449999809265137,11.449999809265137,13.25,11.100000381469727,12.949999809265137,191413
2023-02-28,11.600000381469727,11.600000381469727,11.800000190734863,10.800000190734863,11.699999809265137,61979
2023-03-01,12.350000381469727,12.350000381469727,12.600000381469727,11.5,11.550000190734863,27768
2023-03-02,12.850000381469727,12.850000381469727,12.949999809265137,12.350000381469727,12.350000381469727,55062
2023-03-03,12.699999809265137,12.699999809265137,13.0,12.5,12.949999809265137,20435
2023-03-06,12.75,12.75,12.899999618530273,12.350000381469727,12.399999618530273,15467
2023-03-08,12.75,12.75,12.850000381469727,12.600000381469727,12.75,49571
2023-03-09,12.649999618530273,12.649999618530273,13.0,12.5,12.949999809265137,16999
2023-03-10,11.649999618530273,11.649999618530273,12.649999618530273,11.449999809265137,12.5,168268
2023-03-13,11.25,11.25,11.899999618530273,11.199999809265137,11.899999618530273,55417
2023-03-14,11.399999618530273,11.399999618530273,11.550000190734863,11.199999809265137,11.399999618530273,20366
2023-03-15,11.5,11.5,11.800000190734863,11.050000190734863,11.699999809265137,39002
2023-03-16,11.399999618530273,11.399999618530273,11.649999618530273,11.199999809265137,11.399999618530273,53656
2023-03-17,11.399999618530273,11.399999618530273,11.850000381469727,11.149999618530273,11.699999809265137,27032
2023-03-20,11.0,11.0,11.600000381469727,10.850000381469727,11.0,74589
2023-03-21,11.0,11.0,11.199999809265137,10.949999809265137,11.0,33583
2023-03-22,10.899999618530273,10.899999618530273,11.199999809265137,10.649999618530273,11.0,53162
2023-03-23,11.0,11.0,11.350000381469727,10.850000381469727,10.850000381469727,40747
2023-03-24,10.699999809265137,10.699999809265137,11.149999618530273,10.699999809265137,10.899999618530273,55739
2023-03-27,10.399999618530273,10.399999618530273,10.899999618530273,10.350000381469727,10.800000190734863,76455
2023-03-28,10.600000381469727,10.600000381469727,10.899999618530273,10.399999618530273,10.899999618530273,75817
2023-03-29,10.550000190734863,10.550000190734863,11.100000381469727,10.449999809265137,10.5,67761
2023-03-31,11.149999618530273,11.149999618530273,11.75,10.550000190734863,10.600000381469727,226589
2023-04-03,12.899999618530273,12.899999618530273,13.199999809265137,11.149999618530273,11.399999618530273,127643
2023-04-05,12.100000381469727,12.100000381469727,13.199999809265137,11.600000381469727,13.0,129271
2023-04-06,12.050000190734863,12.050000190734863,12.449999809265137,11.5,12.449999809265137,45240
2023-04-10,11.850000381469727,11.850000381469727,12.5,11.5,12.5,35059
2023-04-11,13.100000381469727,13.100000381469727,13.350000381469727,11.699999809265137,12.25,385063
2023-04-12,12.75,12.75,13.449999809265137,12.550000190734863,13.25,261270
2023-04-13,13.0,13.0,13.449999809265137,12.550000190734863,12.75,77438
2023-04-17,12.649999618530273,12.649999618530273,13.300000190734863,12.550000190734863,13.300000190734863,318032
2023-04-18,12.899999618530273,12.899999618530273,13.0,12.649999618530273,12.800000190734863,45150
2023-04-19,12.600000381469727,12.600000381469727,13.0,12.5,13.0,30715
2023-04-20,12.550000190734863,12.550000190734863,12.800000190734863,12.5,12.600000381469727,28953
2023-04-21,12.199999809265137,12.199999809265137,12.600000381469727,12.050000190734863,12.600000381469727,30220
2023-04-24,12.350000381469727,12.350000381469727,12.699999809265137,11.949999809265137,12.199999809265137,35633
2023-04-25,12.5,12.5,12.649999618530273,12.199999809265137,12.350000381469727,23398
2023-04-26,12.550000190734863,12.550000190734863,12.699999809265137,12.25,12.699999809265137,13187
2023-04-27,12.699999809265137,12.699999809265137,12.800000190734863,12.350000381469727,12.350000381469727,32800
2023-04-28,12.75,12.75,12.850000381469727,12.550000190734863,12.75,38587
2023-05-02,12.699999809265137,12.699999809265137,12.899999618530273,12.600000381469727,12.75,19301
2023-05-03,12.850000381469727,12.850000381469727,12.949999809265137,12.350000381469727,12.699999809265137,47637
2023-05-04,12.899999618530273,12.899999618530273,13.350000381469727,12.600000381469727,12.850000381469727,94715
2023-05-05,12.850000381469727,12.850000381469727,13.0,12.699999809265137,12.949999809265137,15433
2023-05-08,13.800000190734863,13.800000190734863,14.25,12.800000190734863,12.949999809265137,292716
2023-05-09,13.5,13.5,14.0,13.5,13.800000190734863,29964
2023-05-10,13.100000381469727,13.100000381469727,13.5,13.100000381469727,13.5,27844
2023-05-11,13.199999809265137,13.199999809265137,13.399999618530273,13.100000381469727,13.100000381469727,32865
2023-05-12,13.050000190734863,13.050000190734863,13.399999618530273,13.0,13.399999618530273,20811
2023-05-15,13.25,13.25,13.699999809265137,13.050000190734863,13.100000381469727,40407
2023-05-16,13.100000381469727,13.100000381469727,13.449999809265137,13.050000190734863,13.449999809265137,20477
2023-05-17,12.850000381469727,12.850000381469727,13.199999809265137,12.800000190734863,13.050000190734863,44517
2023-05-18,12.800000190734863,12.800000190734863,13.199999809265137,12.75,13.0,122584
2023-05-19,12.949999809265137,12.949999809265137,13.0,12.699999809265137,12.949999809265137,43391
2023-05-22,12.949999809265137,12.949999809265137,13.0,12.600000381469727,12.949999809265137,33677
2023-05-23,12.800000190734863,12.800000190734863,13.050000190734863,12.75,13.050000190734863,36906
2023-05-24,13.300000190734863,13.300000190734863,13.449999809265137,12.699999809265137,12.800000190734863,91142
2023-05-25,13.550000190734863,13.550000190734863,13.899999618530273,13.050000190734863,13.300000190734863,107762
2023-05-26,13.550000190734863,13.550000190734863,13.949999809265137,13.350000381469727,13.550000190734863,69704
2023-05-29,13.5,13.5,13.899999618530273,13.5,13.600000381469727,59427
2023-05-30,13.399999618530273,13.399999618530273,13.75,13.100000381469727,13.75,7102
2023-05-31,12.899999618530273,12.899999618530273,13.550000190734863,12.600000381469727,13.550000190734863,73407
2023-06-01,13.149999618530273,13.149999618530273,13.25,12.899999618530273,13.0,14121
2023-06-02,12.949999809265137,12.949999809265137,13.25,12.949999809265137,13.199999809265137,34554
2023-06-05,13.050000190734863,13.050000190734863,13.300000190734863,12.949999809265137,13.199999809265137,25800
2023-06-06,12.899999618530273,12.899999618530273,13.25,12.850000381469727,13.25,53223
2023-06-07,13.399999618530273,13.399999618530273,13.949999809265137,12.899999618530273,12.899999618530273,379055
2023-06-08,13.0,13.0,13.75,12.949999809265137,13.399999618530273,72170
2023-06-09,13.199999809265137,13.199999809265137,13.399999618530273,13.0,13.0,47457
2023-06-12,13.149999618530273,13.149999618530273,13.399999618530273,13.050000190734863,13.100000381469727,19511
2023-06-13,13.25,13.25,13.5,13.100000381469727,13.100000381469727,69487
2023-06-14,13.600000381469727,13.600000381469727,13.800000190734863,13.050000190734863,13.199999809265137,137447
2023-06-15,13.25,13.25,13.800000190734863,13.149999618530273,13.75,53466
2023-06-16,13.449999809265137,13.449999809265137,13.5,13.100000381469727,13.25,35712
2023-06-19,13.199999809265137,13.199999809265137,13.699999809265137,13.149999618530273,13.25,35306
2023-06-20,13.399999618530273,13.399999618530273,13.600000381469727,13.149999618530273,13.350000381469727,54384
2023-06-21,13.399999618530273,13.399999618530273,13.600000381469727,13.199999809265137,13.399999618530273,28021
2023-06-22,13.25,13.25,13.649999618530273,13.199999809265137,13.600000381469727,63592
2023-06-23,13.100000381469727,13.100000381469727,13.25,13.0,13.25,25770
2023-06-26,13.25,13.25,13.5,13.050000190734863,13.25,39287
2023-06-27,13.149999618530273,13.149999618530273,13.449999809265137,13.100000381469727,13.25,21179
2023-06-28,13.050000190734863,13.050000190734863,13.25,13.050000190734863,13.100000381469727,18003
2023-06-30,13.199999809265137,13.199999809265137,13.5,12.949999809265137,12.949999809265137,35450
2023-07-03,13.399999618530273,13.399999618530273,13.449999809265137,13.149999618530273,13.449999809265137,32766
2023-07-04,13.199999809265137,13.199999809265137,13.5,13.149999618530273,13.5,21348
2023-07-05,13.199999809265137,13.199999809265137,13.5,13.149999618530273,13.199999809265137,29920
2023-07-06,13.25,13.25,13.350000381469727,13.100000381469727,13.199999809265137,35865
2023-07-07,12.899999618530273,12.899999618530273,13.300000190734863,12.550000190734863,13.25,80502
2023-07-10,12.800000190734863,12.800000190734863,13.0,12.75,12.899999618530273,21224
2023-07-11,12.800000190734863,12.800000190734863,13.0,12.699999809265137,12.800000190734863,17037
2023-07-12,12.699999809265137,12.699999809265137,13.0,12.600000381469727,13.0,41933
2023-07-13,12.699999809265137,12.699999809265137,12.850000381469727,12.649999618530273,12.75,20198
2023-07-14,12.649999618530273,12.649999618530273,12.800000190734863,12.600000381469727,12.699999809265137,27678
2023-07-17,12.75,12.75,12.899999618530273,12.600000381469727,12.600000381469727,24144
2023-07-18,12.600000381469727,12.600000381469727,12.850000381469727,12.550000190734863,12.699999809265137,25982
2023-07-19,12.649999618530273,12.649999618530273,12.75,12.550000190734863,12.600000381469727,25872
2023-07-20,12.550000190734863,12.550000190734863,12.75,12.449999809265137,12.75,61917
2023-07-21,12.5,12.5,12.600000381469727,12.5,12.5,47815
2023-07-24,12.300000190734863,12.300000190734863,12.5,12.25,12.5,49225
2023-07-25,12.449999809265137,12.449999809265137,12.600000381469727,12.300000190734863,12.399999618530273,26571
2023-07-26,12.5,12.5,12.550000190734863,12.350000381469727,12.5,19922
2023-07-27,12.399999618530273,12.399999618530273,12.600000381469727,12.399999618530273,12.600000381469727,25966
2023-07-28,12.350000381469727,12.350000381469727,12.5,12.25,12.399999618530273,39887
2023-07-31,12.350000381469727,12.350000381469727,12.550000190734863,12.300000190734863,12.350000381469727,38504
2023-08-01,12.449999809265137,12.449999809265137,12.600000381469727,12.350000381469727,12.5,46949
2023-08-02,12.199999809265137,12.199999809265137,12.5,12.199999809265137,12.5,45963
2023-08-03,12.25,12.25,12.399999618530273,12.149999618530273,12.399999618530273,15672
2023-08-04,12.300000190734863,12.300000190734863,12.449999809265137,12.25,12.449999809265137,14086
2023-08-07,12.149999618530273,12.149999618530273,12.399999618530273,12.149999618530273,12.199999809265137,62814
2023-08-08,12.25,12.25,12.399999618530273,12.149999618530273,12.149999618530273,17359
2023-08-09,12.199999809265137,12.199999809265137,12.350000381469727,12.100000381469727,12.25,38536
2023-08-10,12.149999618530273,12.149999618530273,12.300000190734863,12.149999618530273,12.199999809265137,32586
2023-08-11,12.899999618530273,12.899999618530273,13.5,12.149999618530273,12.25,512852
2023-08-14,12.75,12.75,13.199999809265137,12.600000381469727,12.899999618530273,104174
2023-08-16,13.5,13.5,13.899999618530273,12.600000381469727,12.600000381469727,439086
2023-08-17,13.350000381469727,13.350000381469727,13.800000190734863,13.25,13.600000381469727,182585
2023-08-18,13.050000190734863,13.050000190734863,13.5,12.949999809265137,13.350000381469727,89271
2023-08-21,13.100000381469727,13.100000381469727,13.399999618530273,13.0,13.25,38510
2023-08-22,13.050000190734863,13.050000190734863,13.800000190734863,12.949999809265137,13.199999809265137,91362
2023-08-23,13.25,13.25,13.75,13.100000381469727,13.149999618530273,210215
2023-08-24,13.300000190734863,13.300000190734863,13.5,13.149999618530273,13.300000190734863,103660
2023-08-25,13.449999809265137,13.449999809265137,13.699999809265137,13.149999618530273,13.350000381469727,73262
2023-08-28,13.199999809265137,13.199999809265137,13.600000381469727,13.0,13.5,142296
2023-08-29,13.100000381469727,13.100000381469727,13.399999618530273,13.050000190734863,13.199999809265137,57892
2023-08-30,13.100000381469727,13.100000381469727,13.449999809265137,13.0,13.25,122109
2023-08-31,12.949999809265137,12.949999809265137,13.300000190734863,12.899999618530273,13.100000381469727,99024
2023-09-01,13.050000190734863,13.050000190734863,13.149999618530273,12.949999809265137,13.0,72154
2023-09-04,13.25,13.25,13.449999809265137,13.0,13.100000381469727,193449
2023-09-05,15.899999618530273,15.899999618530273,15.899999618530273,13.350000381469727,13.449999809265137,4035942
2023-09-06,16.75,16.75,17.399999618530273,15.050000190734863,16.100000381469727,2250822
2023-09-07,17.0,17.0,18.549999237060547,16.600000381469727,17.049999237060547,1367174
2023-09-08,16.25,16.25,17.399999618530273,16.100000381469727,17.399999618530273,426389
2023-09-11,16.149999618530273,16.149999618530273,16.649999618530273,16.049999237060547,16.5,138717
2023-09-12,14.949999809265137,14.949999809265137,16.350000381469727,14.800000190734863,16.350000381469727,333266
2023-09-13,15.649999618530273,15.649999618530273,15.800000190734863,14.550000190734863,14.850000381469727,221663
2023-09-14,15.550000190734863,15.550000190734863,16.0,15.5,15.949999809265137,81241
2023-09-15,16.200000762939453,16.200000762939453,16.5,15.399999618530273,15.5,340043
2023-09-18,15.75,15.75,16.450000762939453,15.5,16.450000762939453,97704
2023-09-20,15.199999809265137,15.199999809265137,15.699999809265137,15.050000190734863,15.699999809265137,123029
2023-09-21,15.199999809265137,15.199999809265137,15.75,15.100000381469727,15.149999618530273,71633
2023-09-22,15.050000190734863,15.050000190734863,15.399999618530273,14.949999809265137,15.199999809265137,51555
2023-09-25,15.399999618530273,15.399999618530273,15.649999618530273,15.149999618530273,15.300000190734863,75749
2023-09-26,15.100000381469727,15.100000381469727,15.5,15.050000190734863,15.5,130187
2023-09-27,15.0,15.0,15.399999618530273,14.800000190734863,15.300000190734863,56339
2023-09-28,14.800000190734863,14.800000190734863,15.300000190734863,14.75,15.0,91717
2023-09-29,14.699999809265137,14.699999809265137,15.0,14.600000381469727,14.800000190734863,34641
2023-10-03,14.850000381469727,14.850000381469727,15.0,14.600000381469727,14.800000190734863,39180
2023-10-04,14.949999809265137,14.949999809265137,15.0,14.800000190734863,15.0,50070
2023-10-05,14.699999809265137,14.699999809265137,15.0,14.550000190734863,14.899999618530273,32080
2023-10-06,15.050000190734863,15.050000190734863,15.25,14.75,14.949999809265137,49813
2023-10-09,14.699999809265137,14.699999809265137,15.149999618530273,14.600000381469727,15.050000190734863,38518
2023-10-10,14.600000381469727,14.600000381469727,15.050000190734863,14.399999618530273,14.899999618530273,69657
2023-10-11,16.149999618530273,16.149999618530273,16.299999237060547,14.600000381469727,14.649999618530273,721276
2023-10-12,15.899999618530273,15.899999618530273,16.399999618530273,15.5,16.399999618530273,198664
2023-10-13,15.550000190734863,15.550000190734863,16.0,15.5,16.0,105239
2023-10-16,15.399999618530273,15.399999618530273,16.0,15.149999618530273,15.800000190734863,205377
2023-10-17,15.350000381469727,15.350000381469727,15.699999809265137,15.25,15.449999809265137,93352
2023-10-18,15.100000381469727,15.100000381469727,15.5,14.949999809265137,15.350000381469727,108343
2023-10-19,14.949999809265137,14.949999809265137,15.199999809265137,14.800000190734863,15.100000381469727,83492
2023-10-20,15.0,15.0,15.399999618530273,14.800000190734863,15.050000190734863,42346
2023-10-23,13.800000190734863,13.800000190734863,15.199999809265137,13.550000190734863,15.199999809265137,97044
2023-10-25,14.050000190734863,14.050000190734863,14.550000190734863,13.800000190734863,14.050000190734863,422522
2023-10-26,13.5,13.5,14.100000381469727,13.25,13.850000381469727,142623
2023-10-27,13.699999809265137,13.699999809265137,14.100000381469727,13.5,13.5,328751
2023-10-30,13.75,13.75,14.100000381469727,13.649999618530273,13.699999809265137,229545
2023-10-31,13.800000190734863,13.800000190734863,13.949999809265137,13.600000381469727,13.75,42043
2023-11-01,13.800000190734863,13.800000190734863,14.100000381469727,13.699999809265137,14.0,276966
2023-11-02,13.899999618530273,13.899999618530273,14.199999809265137,13.800000190734863,13.800000190734863,500116
2023-11-03,14.050000190734863,14.050000190734863,14.399999618530273,14.0,14.100000381469727,255031
2023-11-06,14.5,14.5,14.699999809265137,14.0,14.0,814688
2023-11-07,14.449999809265137,14.449999809265137,14.699999809265137,14.399999618530273,14.699999809265137,156940
2023-11-08,14.800000190734863,14.800000190734863,15.050000190734863,14.600000381469727,14.75,431103
2023-11-09,14.449999809265137,14.449999809265137,15.050000190734863,14.350000381469727,14.75,635529
2023-11-10,15.649999618530273,15.649999618530273,16.200000762939453,14.449999809265137,14.649999618530273,1345542
2023-11-13,15.449999809265137,15.449999809265137,15.800000190734863,15.300000190734863,15.699999809265137,327788
2023-11-15,15.350000381469727,15.350000381469727,15.75,15.25,15.5,473832
2023-11-16,15.199999809265137,15.199999809265137,15.449999809265137,15.050000190734863,15.350000381469727,872176
2023-11-17,15.5,15.5,15.75,14.949999809265137,15.100000381469727,955462
2023-11-20,16.950000762939453,16.950000762939453,17.799999237060547,15.350000381469727,15.350000381469727,2020875
2023-11-21,17.950000762939453,17.950000762939453,18.200000762939453,17.299999237060547,17.75,1713511
2023-11-22,16.700000762939453,16.700000762939453,18.149999618530273,16.399999618530273,18.149999618530273,653775
2023-11-23,16.700000762939453,16.700000762939453,17.149999618530273,16.5,16.700000762939453,274110
2023-11-24,17.049999237060547,17.049999237060547,17.299999237060547,16.799999237060547,16.899999618530273,498725
2023-11-28,16.75,16.75,17.5,16.600000381469727,17.450000762939453,705319
2023-11-29,16.549999237060547,16.549999237060547,17.0,16.5,17.0,734543
2023-11-30,15.949999809265137,15.949999809265137,16.75,15.800000190734863,16.600000381469727,525311
2023-12-01,16.149999618530273,16.149999618530273,16.5,15.899999618530273,16.200000762939453,484883
2023-12-04,16.149999618530273,16.149999618530273,16.5,16.049999237060547,16.5,77410
2023-12-05,16.049999237060547,16.049999237060547,16.350000381469727,15.75,16.299999237060547,221430
2023-12-06,17.0,17.0,17.600000381469727,16.350000381469727,16.399999618530273,972702
2023-12-07,17.100000381469727,17.100000381469727,17.649999618530273,16.5,17.200000762939453,323111
2023-12-08,16.75,16.75,17.350000381469727,16.649999618530273,17.350000381469727,146779
2023-12-11,16.549999237060547,16.549999237060547,17.0,16.450000762939453,17.0,219606
2023-12-12,16.450000762939453,16.450000762939453,16.950000762939453,16.350000381469727,16.75,192802
2023-12-13,16.399999618530273,16.399999618530273,16.75,16.200000762939453,16.600000381469727,132498
2023-12-14,16.350000381469727,16.350000381469727,16.799999237060547,16.149999618530273,16.5,155896
2023-12-15,16.200000762939453,16.200000762939453,16.5,16.149999618530273,16.5,81797
2023-12-18,18.899999618530273,18.899999618530273,19.399999618530273,16.25,16.25,2511418
2023-12-19,18.950000762939453,18.950000762939453,19.799999237060547,18.049999237060547,19.600000381469727,1926599
2023-12-20,18.149999618530273,18.149999618530273,19.799999237060547,17.899999618530273,18.700000762939453,1198050
2023-12-21,18.950000762939453,18.950000762939453,19.299999237060547,17.600000381469727,18.399999618530273,753780
2023-12-22,18.350000381469727,18.350000381469727,19.350000381469727,18.149999618530273,19.350000381469727,283104
2023-12-26,18.200000762939453,18.200000762939453,18.850000381469727,17.75,18.600000381469727,254886
2023-12-27,17.5,17.5,18.700000762939453,17.299999237060547,18.25,285999
2023-12-28,16.649999618530273,16.649999618530273,17.700000762939453,16.5,17.600000381469727,429151
2023-12-29,17.5,17.5,17.950000762939453,16.75,16.799999237060547,225203
2024-01-01,18.299999237060547,18.299999237060547,19.049999237060547,17.549999237060547,17.700000762939453,536360
2024-01-02,20.25,20.25,20.799999237060547,18.450000762939453,18.75,2746516
2024-01-03,19.850000381469727,19.850000381469727,20.700000762939453,19.600000381469727,20.450000762939453,615802
2024-01-04,19.549999237060547,19.549999237060547,20.200000762939453,19.450000762939453,19.899999618530273,357173
2024-01-05,19.25,19.25,19.799999237060547,18.399999618530273,19.600000381469727,570521
2024-01-08,19.649999618530273,19.649999618530273,20.200000762939453,19.049999237060547,19.25,542363
2024-01-09,20.350000381469727,20.350000381469727,20.700000762939453,19.25,19.799999237060547,692641
2024-01-10,19.950000762939453,19.950000762939453,20.450000762939453,19.799999237060547,20.049999237060547,359423
2024-01-11,19.700000762939453,19.700000762939453,20.200000762939453,19.450000762939453,19.950000762939453,178537
2024-01-12,19.350000381469727,19.350000381469727,20.399999618530273,19.200000762939453,19.700000762939453,395051
2024-01-15,19.950000762939453,19.950000762939453,20.549999237060547,19.299999237060547,19.450000762939453,545691
2024-01-16,19.549999237060547,19.549999237060547,20.600000381469727,19.0,20.549999237060547,438396
2024-01-17,19.149999618530273,19.149999618530273,19.799999237060547,18.850000381469727,19.549999237060547,172470
2024-01-18,19.200000762939453,19.200000762939453,19.799999237060547,18.399999618530273,19.049999237060547,199832
2024-01-19,19.75,19.75,20.399999618530273,19.149999618530273,19.399999618530273,464185
2024-01-23,18.25,18.25,19.75,17.899999618530273,19.5,307197
2024-01-24,17.899999618530273,17.899999618530273,18.600000381469727,17.700000762939453,18.299999237060547,522103
2024-01-25,18.549999237060547,18.549999237060547,18.950000762939453,18.0,18.049999237060547,505999
2024-01-29,18.549999237060547,18.549999237060547,19.350000381469727,18.350000381469727,18.850000381469727,473863
2024-01-30,19.299999237060547,19.299999237060547,19.899999618530273,18.100000381469727,18.799999237060547,881136
2024-01-31,18.950000762939453,18.950000762939453,19.799999237060547,18.850000381469727,19.299999237060547,461047
2024-02-01,18.649999618530273,18.649999618530273,19.399999618530273,18.5,19.25,328657
2024-02-02,18.5,18.5,19.200000762939453,18.399999618530273,18.850000381469727,312814
2024-02-05,18.149999618530273,18.149999618530273,19.350000381469727,18.0,18.700000762939453,255041
2024-02-06,21.75,21.75,21.75,18.0,18.450000762939453,4434228
2024-02-07,23.049999237060547,23.049999237060547,24.350000381469727,20.5,21.899999618530273,6061557
2024-02-08,23.350000381469727,23.350000381469727,23.899999618530273,22.399999618530273,23.700000762939453,1453883
2024-02-09,21.950000762939453,21.950000762939453,24.0,21.0,24.0,1023722
2024-02-12,19.649999618530273,19.649999618530273,22.399999618530273,19.299999237060547,22.0,702268
2024-02-13,19.25,19.25,20.149999618530273,18.700000762939453,19.049999237060547,471798
2024-02-14,20.25,20.25,20.399999618530273,18.850000381469727,18.850000381469727,410323
2024-02-15,20.700000762939453,20.700000762939453,21.200000762939453,20.450000762939453,20.850000381469727,326424
2024-02-16,21.25,21.25,21.700000762939453,20.850000381469727,21.049999237060547,374675
2024-02-19,20.700000762939453,20.700000762939453,21.649999618530273,20.600000381469727,21.649999618530273,221074
2024-02-20,20.149999618530273,20.149999618530273,21.149999618530273,20.0,20.700000762939453,259170
2024-02-21,19.700000762939453,19.700000762939453,21.0,19.450000762939453,20.25,426046
2024-02-22,20.350000381469727,20.350000381469727,20.850000381469727,19.200000762939453,19.899999618530273,471362
2024-02-23,19.899999618530273,19.899999618530273,20.700000762939453,19.799999237060547,20.5,205478
2024-02-26,19.200000762939453,19.200000762939453,20.100000381469727,19.0,20.0,349526
2024-02-27,18.899999618530273,18.899999618530273,19.950000762939453,18.549999237060547,19.350000381469727,351210
2024-02-28,18.299999237060547,18.299999237060547,19.299999237060547,17.899999618530273,19.0,353315
2024-02-29,18.350000381469727,18.350000381469727,18.5,17.950000762939453,18.299999237060547,104803
2024-03-01,19.149999618530273,19.149999618530273,19.350000381469727,18.299999237060547,18.549999237060547,375337
2024-03-04,19.600000381469727,19.600000381469727,20.5,18.600000381469727,19.299999237060547,1032288
2024-03-05,19.399999618530273,19.399999618530273,20.700000762939453,19.149999618530273,19.600000381469727,430469
2024-03-06,18.850000381469727,18.850000381469727,19.600000381469727,18.350000381469727,19.5,259658
2024-03-07,18.75,18.75,19.200000762939453,18.600000381469727,18.600000381469727,93568
2024-03-11,18.200000762939453,18.200000762939453,18.950000762939453,17.899999618530273,18.950000762939453,166822
2024-03-12,16.850000381469727,16.850000381469727,18.25,16.600000381469727,18.149999618530273,278542
2024-03-13,15.399999618530273,15.399999618530273,17.049999237060547,15.199999809265137,16.600000381469727,326514
2024-03-14,15.75,15.75,16.149999618530273,14.800000190734863,15.300000190734863,323350
2024-03-15,15.899999618530273,15.899999618530273,16.299999237060547,15.550000190734863,15.899999618530273,139280
2024-03-18,15.949999809265137,15.949999809265137,16.299999237060547,15.600000381469727,15.649999618530273,101099
2024-03-19,15.350000381469727,15.350000381469727,16.100000381469727,15.149999618530273,15.649999618530273,156688
2024-03-20,14.899999618530273,14.899999618530273,15.649999618530273,14.550000190734863,15.25,175876
2024-03-21,16.049999237060547,16.049999237060547,16.5,14.949999809265137,15.0,618976
2024-03-22,15.75,15.75,16.149999618530273,15.600000381469727,16.049999237060547,155728
2024-03-26,15.5,15.5,16.149999618530273,15.399999618530273,16.0,123171
2024-03-27,14.800000190734863,14.800000190734863,15.75,14.5,15.399999618530273,307388
2024-03-28,14.649999618530273,14.649999618530273,15.449999809265137,14.550000190734863,15.0,164925
2024-04-01,16.100000381469727,16.100000381469727,16.200000762939453,14.399999618530273,14.5,220502
2024-04-02,16.600000381469727,16.600000381469727,16.75,15.800000190734863,16.049999237060547,154019
2024-04-03,17.299999237060547,17.299999237060547,17.600000381469727,16.549999237060547,16.950000762939453,301469
2024-04-04,19.549999237060547,19.549999237060547,20.200000762939453,17.100000381469727,17.950000762939453,1437274
2024-04-05,20.850000381469727,20.850000381469727,21.25,18.799999237060547,19.549999237060547,1624947
2024-04-08,19.75,19.75,21.549999237060547,19.600000381469727,21.549999237060547,367879
2024-04-09,19.5,19.5,20.899999618530273,19.399999618530273,19.950000762939453,248792
2024-04-10,19.350000381469727,19.350000381469727,20.200000762939453,19.200000762939453,19.549999237060547,168929
2024-04-12,18.899999618530273,18.899999618530273,19.899999618530273,18.299999237060547,19.049999237060547,238854
2024-04-15,19.100000381469727,19.100000381469727,19.299999237060547,17.299999237060547,17.799999237060547,367991
2024-04-16,21.0,21.0,21.0,18.5,19.100000381469727,1304407
2024-04-18,22.149999618530273,22.149999618530273,23.100000381469727,21.149999618530273,21.399999618530273,1986566
2024-04-19,22.100000381469727,22.100000381469727,22.25,20.899999618530273,22.0,346575
2024-04-22,22.450000762939453,22.450000762939453,23.200000762939453,21.600000381469727,23.049999237060547,371283
2024-04-23,22.049999237060547,22.049999237060547,22.899999618530273,21.799999237060547,22.049999237060547,245867
2024-04-24,22.0,22.0,22.5,21.899999618530273,22.0,287056
2024-04-25,21.350000381469727,21.350000381469727,22.25,21.0,22.25,173168
2024-04-26,21.600000381469727,21.600000381469727,21.799999237060547,21.350000381469727,21.350000381469727,106113
2024-04-29,21.700000762939453,21.700000762939453,21.950000762939453,21.5,21.950000762939453,117777
2024-04-30,22.049999237060547,22.049999237060547,22.700000762939453,21.649999618530273,22.0,256537
2024-05-02,22.899999618530273,22.899999618530273,23.25,21.149999618530273,22.350000381469727,800970
2024-05-03,22.600000381469727,22.600000381469727,23.0,22.399999618530273,22.950000762939453,178059
2024-05-06,22.450000762939453,22.450000762939453,22.850000381469727,22.149999618530273,22.75,193243
2024-05-07,22.100000381469727,22.100000381469727,23.0,21.799999237060547,23.0,146988
2024-05-08,22.049999237060547,22.049999237060547,22.700000762939453,21.950000762939453,22.5,86039
2024-05-09,20.799999237060547,20.799999237060547,22.25,20.149999618530273,22.200000762939453,112511
2024-05-10,20.600000381469727,20.600000381469727,20.850000381469727,20.149999618530273,20.399999618530273,42582
2024-05-13,20.200000762939453,20.200000762939453,20.850000381469727,19.600000381469727,20.600000381469727,52836
2024-05-14,21.549999237060547,21.549999237060547,22.049999237060547,19.700000762939453,19.799999237060547,173093
2024-05-15,21.5,21.5,22.25,21.0,21.75,73362
2024-05-16,21.049999237060547,21.049999237060547,21.899999618530273,21.0,21.899999618530273,55536
2024-05-17,21.450000762939453,21.450000762939453,22.200000762939453,20.600000381469727,20.600000381469727,160020
2024-05-21,21.25,21.25,22.0,20.5,21.0,167699
2024-05-22,21.0,21.0,21.450000762939453,20.700000762939453,21.399999618530273,65009
2024-05-23,20.700000762939453,20.700000762939453,21.350000381469727,20.600000381469727,21.049999237060547,44899
2024-05-24,20.549999237060547,20.549999237060547,21.049999237060547,20.299999237060547,20.950000762939453,45103
2024-05-27,20.25,20.25,20.899999618530273,20.100000381469727,20.600000381469727,58758
2024-05-28,19.899999618530273,19.899999618530273,20.450000762939453,19.850000381469727,20.0,46062
2024-05-29,20.700000762939453,20.700000762939453,21.100000381469727,19.700000762939453,19.700000762939453,109213
2024-05-30,20.100000381469727,20.100000381469727,21.100000381469727,19.649999618530273,20.950000762939453,68494
2024-05-31,19.700000762939453,19.700000762939453,20.299999237060547,19.549999237060547,20.0,64092
2024-06-03,19.799999237060547,19.799999237060547,20.450000762939453,19.649999618530273,19.75,46103
2024-06-04,18.350000381469727,18.350000381469727,20.149999618530273,17.850000381469727,20.149999618530273,220207
2024-06-05,18.299999237060547,18.299999237060547,18.899999618530273,17.5,18.350000381469727,96204
2024-06-06,19.549999237060547,19.549999237060547,19.850000381469727,18.350000381469727,18.450000762939453,83179
2024-06-07,20.0,20.0,21.5,19.399999618530273,19.899999618530273,186798
2024-06-10,20.209999084472656,20.209999084472656,20.899999618530273,20.010000228881836,20.899999618530273,53281
2024-06-11,20.209999084472656,20.209999084472656,20.799999237060547,19.8700008392334,20.3799991607666,66456
2024-06-12,19.969999313354492,19.969999313354492,20.5,19.559999465942383,20.25,82620
2024-06-13,19.90999984741211,19.90999984741211,20.280000686645508,19.850000381469727,20.280000686645508,41243
2024-06-14,20.020000457763672,20.020000457763672,20.899999618530273,19.8799991607666,19.950000762939453,186163
2024-06-18,19.6299991607666,19.6299991607666,20.489999771118164,19.5,20.049999237060547,124568
2024-06-19,19.18000030517578,19.18000030517578,19.850000381469727,19.010000228881836,19.850000381469727,76697
2024-06-20,19.09000015258789,19.09000015258789,19.579999923706055,19.0,19.3799991607666,120780
2024-06-21,19.459999084472656,19.459999084472656,19.530000686645508,19.049999237060547,19.299999237060547,77355
2024-06-24,19.459999084472656,19.459999084472656,20.139999389648438,19.399999618530273,19.649999618530273,127706
2024-06-25,19.31999969482422,19.31999969482422,19.899999618530273,19.260000228881836,19.489999771118164,89751
2024-06-26,19.530000686645508,19.530000686645508,19.8700008392334,19.0,19.299999237060547,137472
2024-06-27,19.56999969482422,19.56999969482422,19.639999389648438,19.360000610351562,19.530000686645508,88836
2024-06-28,19.610000610351562,19.610000610351562,19.790000915527344,19.170000076293945,19.790000915527344,135717
2024-07-01,20.5,20.5,20.75,19.6200008392334,19.739999771118164,204523
2024-07-02,21.15999984741211,21.15999984741211,21.799999237060547,20.020000457763672,20.510000228881836,666799
2024-07-03,20.93000030517578,20.93000030517578,21.790000915527344,20.899999618530273,21.479999542236328,147120
2024-07-04,20.280000686645508,20.280000686645508,21.18000030517578,20.149999618530273,20.799999237060547,47598
2024-07-05,21.020000457763672,21.020000457763672,21.799999237060547,20.100000381469727,20.700000762939453,168096
2024-07-08,21.020000457763672,21.020000457763672,21.920000076293945,20.5,21.440000534057617,289215
2024-07-09,20.969999313354492,20.969999313354492,21.989999771118164,20.950000762939453,21.239999771118164,160139
2024-07-10,20.6200008392334,20.6200008392334,21.229999542236328,20.299999237060547,21.229999542236328,76323
2024-07-11,20.34000015258789,20.34000015258789,20.950000762939453,20.299999237060547,20.950000762939453,61478
2024-07-12,21.100000381469727,21.100000381469727,21.399999618530273,20.25,20.25,149216
2024-07-15,20.729999542236328,20.729999542236328,21.469999313354492,20.579999923706055,21.469999313354492,62068
2024-07-16,20.270000457763672,20.270000457763672,20.969999313354492,20.1200008392334,20.969999313354492,83161
2024-07-18,20.469999313354492,20.469999313354492,21.25,19.809999465942383,20.31999969482422,199309
2024-07-19,20.06999969482422,20.06999969482422,20.700000762939453,19.809999465942383,20.670000076293945,83057
2024-07-22,19.84000015258789,19.84000015258789,20.06999969482422,19.799999237060547,19.950000762939453,36919
2024-07-23,19.75,19.75,20.239999771118164,19.0,19.850000381469727,188638
2024-07-24,21.600000381469727,21.600000381469727,21.719999313354492,19.520000457763672,19.520000457763672,602057
2024-07-25,21.739999771118164,21.739999771118164,23.270000457763672,21.049999237060547,21.5,791043
2024-07-26,21.25,21.25,22.190000534057617,21.1200008392334,21.739999771118164,112955
2024-07-29,20.959999084472656,20.959999084472656,21.459999084472656,20.610000610351562,21.059999465942383,101884
2024-07-30,21.1299991607666,21.1299991607666,21.649999618530273,20.520000457763672,20.520000457763672,72161
2024-07-31,20.829999923706055,20.829999923706055,21.43000030517578,20.700000762939453,21.0,91101
2024-08-01,20.459999084472656,20.459999084472656,21.389999389648438,20.25,21.389999389648438,86999
2024-08-02,20.770000457763672,20.770000457763672,20.959999084472656,19.860000610351562,20.5,100794
2024-08-05,19.850000381469727,19.850000381469727,20.520000457763672,19.389999389648438,20.520000457763672,187224
2024-08-06,19.399999618530273,19.399999618530273,20.389999389648438,19.110000610351562,20.25,66892
2024-08-07,20.299999237060547,20.299999237060547,21.450000762939453,19.020000457763672,19.670000076293945,310962
2024-08-08,20.1200008392334,20.1200008392334,20.860000610351562,20.0,20.049999237060547,36935
2024-08-09,21.829999923706055,21.829999923706055,22.780000686645508,20.200000762939453,20.530000686645508,923112
2024-08-12,21.3799991607666,21.3799991607666,22.399999618530273,21.229999542236328,21.989999771118164,263170
2024-08-13,20.309999465942383,20.309999465942383,21.780000686645508,20.200000762939453,21.780000686645508,96181
2024-08-14,19.940000534057617,19.940000534057617,20.59000015258789,19.809999465942383,20.3700008392334,41942
2024-08-16,20.110000610351562,20.110000610351562,20.440000534057617,19.950000762939453,19.950000762939453,42862
2024-08-19,22.389999389648438,22.389999389648438,22.799999237060547,19.84000015258789,20.34000015258789,564336
2024-08-20,23.530000686645508,23.530000686645508,25.350000381469727,21.739999771118164,25.0,3481112
2024-08-21,23.040000915527344,23.040000915527344,24.84000015258789,22.799999237060547,23.5,896280
2024-08-22,22.610000610351562,22.610000610351562,23.899999618530273,22.510000228881836,23.3700008392334,161195
2024-08-23,22.25,22.25,23.489999771118164,21.899999618530273,22.600000381469727,367057
2024-08-26,22.639999389648438,22.639999389648438,23.450000762939453,22.100000381469727,22.700000762939453,98490
2024-08-27,21.530000686645508,21.530000686645508,22.8799991607666,21.020000457763672,22.8799991607666,221554
2024-08-28,20.979999542236328,20.979999542236328,21.989999771118164,20.81999969482422,21.68000030517578,202537
2024-08-29,20.729999542236328,20.729999542236328,21.799999237060547,20.649999618530273,21.190000534057617,139786
2024-08-30,20.979999542236328,20.979999542236328,21.440000534057617,20.059999465942383,20.93000030517578,521817
2024-09-02,22.139999389648438,22.139999389648438,22.739999771118164,20.850000381469727,21.299999237060547,637951
2024-09-03,22.579999923706055,22.579999923706055,22.809999465942383,22.0,22.540000915527344,282024
2024-09-04,22.010000228881836,22.010000228881836,22.479999542236328,21.6200008392334,21.6200008392334,91885
2024-09-05,21.979999542236328,21.979999542236328,22.739999771118164,21.850000381469727,22.0,185383
2024-09-06,21.969999313354492,21.969999313354492,22.489999771118164,21.549999237060547,22.170000076293945,269622
2024-09-09,21.790000915527344,21.790000915527344,22.219999313354492,21.520000457763672,21.959999084472656,121701
2024-09-10,21.950000762939453,21.950000762939453,22.290000915527344,21.729999542236328,21.729999542236328,64646
2024-09-11,22.030000686645508,22.030000686645508,22.469999313354492,21.950000762939453,21.950000762939453,112487
2024-09-12,21.559999465942383,21.559999465942383,22.299999237060547,21.450000762939453,22.06999969482422,85942
2024-09-13,21.959999084472656,21.959999084472656,22.5,21.600000381469727,21.8799991607666,401079
2024-09-16,21.829999923706055,21.829999923706055,22.399999618530273,21.809999465942383,22.3799991607666,85258
2024-09-17,21.780000686645508,21.780000686645508,22.0,21.5,21.5,58868
2024-09-18,21.149999618530273,21.149999618530273,21.959999084472656,20.799999237060547,21.959999084472656,179999
2024-09-19,20.530000686645508,20.530000686645508,21.440000534057617,20.450000762939453,21.43000030517578,138484
2024-09-20,21.09000015258789,21.09000015258789,21.399999618530273,20.68000030517578,20.989999771118164,123072
2024-09-23,20.90999984741211,20.90999984741211,21.100000381469727,20.850000381469727,21.100000381469727,50349
2024-09-24,20.8700008392334,20.8700008392334,21.450000762939453,20.649999618530273,20.959999084472656,81450
2024-09-25,20.020000457763672,20.020000457763672,20.989999771118164,19.969999313354492,20.979999542236328,267600
2024-09-26,20.190000534057617,20.190000534057617,20.489999771118164,19.989999771118164,20.280000686645508,111644
2024-09-27,20.15999984741211,20.15999984741211,20.639999389648438,20.020000457763672,20.639999389648438,64691
2024-09-30,20.149999618530273,20.149999618530273,20.600000381469727,20.0,20.15999984741211,159350
2024-10-01,20.709999084472656,20.709999084472656,21.0,20.049999237060547,20.280000686645508,200887
2024-10-03,20.190000534057617,20.190000534057617,20.979999542236328,20.110000610351562,20.979999542236328,85454
2024-10-04,19.610000610351562,19.610000610351562,20.489999771118164,19.450000762939453,20.190000534057617,139100
2024-10-07,18.770000457763672,18.770000457763672,19.8700008392334,18.610000610351562,19.8700008392334,107194
2024-10-08,19.280000686645508,19.280000686645508,19.68000030517578,18.690000534057617,19.0,68949
2024-10-09,20.280000686645508,20.280000686645508,20.65999984741211,19.309999465942383,19.65999984741211,167954
2024-10-10,20.309999465942383,20.309999465942383,20.889999389648438,20.149999618530273,20.440000534057617,125314
2024-10-11,19.920000076293945,19.920000076293945,20.59000015258789,19.81999969482422,20.440000534057617,61127
2024-10-14,19.8799991607666,19.8799991607666,20.25,19.649999618530273,20.25,83934
2024-10-15,19.579999923706055,19.579999923706055,20.0,19.520000457763672,19.549999237060547,40402
2024-10-16,19.270000457763672,19.270000457763672,19.75,19.0,19.75,79476
2024-10-17,18.940000534057617,18.940000534057617,19.469999313354492,18.799999237060547,19.270000457763672,71043
2024-10-18,19.059999465942383,19.059999465942383,19.190000534057617,18.649999618530273,18.81999969482422,42771
2024-10-21,18.719999313354492,18.719999313354492,19.440000534057617,18.700000762939453,19.440000534057617,23218
2024-10-22,18.049999237060547,18.049999237060547,18.90999984741211,18.010000228881836,18.75,31415
2024-10-23,17.520000457763672,17.520000457763672,18.389999389648438,17.219999313354492,18.0,145645
2024-10-24,17.84000015258789,17.84000015258789,17.979999542236328,17.1200008392334,17.329999923706055,76989
2024-10-25,17.399999618530273,17.399999618530273,17.850000381469727,17.25,17.84000015258789,49865
2024-10-28,17.229999542236328,17.229999542236328,17.8700008392334,17.100000381469727,17.100000381469727,51233
2024-10-29,17.09000015258789,17.09000015258789,17.790000915527344,16.90999984741211,17.790000915527344,62044
2024-10-30,17.709999084472656,17.709999084472656,17.950000762939453,17.09000015258789,17.450000762939453,50401
2024-10-31,17.959999084472656,17.959999084472656,18.5,17.40999984741211,17.40999984741211,68500
2024-11-01,18.6200008392334,18.6200008392334,18.770000457763672,18.020000457763672,18.479999542236328,27538
2024-11-04,19.209999084472656,19.209999084472656,20.100000381469727,18.889999389648438,19.049999237060547,143263
2024-11-05,19.3799991607666,19.3799991607666,19.959999084472656,19.260000228881836,19.260000228881836,76329
2024-11-06,19.469999313354492,19.469999313354492,19.690000534057617,18.860000610351562,19.399999618530273,46019
2024-11-07,19.09000015258789,19.09000015258789,19.510000228881836,18.920000076293945,19.479999542236328,25913
2024-11-08,18.770000457763672,18.770000457763672,19.190000534057617,18.600000381469727,19.190000534057617,35145
2024-11-11,19.079999923706055,19.079999923706055,19.299999237060547,18.899999618530273,19.149999618530273,28894
2024-11-12,18.229999542236328,18.229999542236328,19.239999771118164,18.0,19.239999771118164,37599
2024-11-13,17.229999542236328,17.229999542236328,18.219999313354492,17.110000610351562,18.219999313354492,57046
2024-11-14,17.579999923706055,17.579999923706055,17.719999313354492,17.299999237060547,17.579999923706055,23935
2024-11-18,16.920000076293945,16.920000076293945,17.700000762939453,16.6200008392334,17.579999923706055,49551
2024-11-19,16.959999084472656,16.959999084472656,17.639999389648438,16.770000457763672,17.229999542236328,74298
2024-11-21,16.329999923706055,16.329999923706055,17.1200008392334,16.200000762939453,16.799999237060547,54297
2024-11-22,16.709999084472656,16.709999084472656,16.84000015258789,16.3700008392334,16.600000381469727,24507
2024-11-25,17.149999618530273,17.149999618530273,17.549999237060547,16.989999771118164,16.989999771118164,67404
2024-11-26,17.149999618530273,17.149999618530273,17.549999237060547,16.200000762939453,17.489999771118164,39957
2024-11-27,17.329999923706055,17.329999923706055,17.59000015258789,17.15999984741211,17.440000534057617,23814
2024-11-28,17.719999313354492,17.719999313354492,18.100000381469727,17.309999465942383,17.690000534057617,55293
2024-11-29,17.889999389648438,17.889999389648438,18.399999618530273,17.65999984741211,17.979999542236328,22201
2024-12-02,18.860000610351562,18.860000610351562,19.34000015258789,18.010000228881836,18.299999237060547,169219
2024-12-03,18.989999771118164,18.989999771118164,19.209999084472656,18.709999084472656,18.959999084472656,68582
2024-12-04,19.0,19.0,20.0,18.610000610351562,18.639999389648438,84265
2024-12-05,19.34000015258789,19.34000015258789,19.549999237060547,18.700000762939453,19.0,43020
2024-12-06,19.149999618530273,19.149999618530273,19.600000381469727,18.950000762939453,19.489999771118164,65135
2024-12-09,19.700000762939453,19.700000762939453,20.75,19.149999618530273,19.149999618530273,265881
2024-12-10,19.559999465942383,19.559999465942383,19.93000030517578,19.299999237060547,19.889999389648438,51141
2024-12-11,19.299999237060547,19.299999237060547,19.739999771118164,19.25,19.700000762939453,36732
2024-12-12,19.209999084472656,19.209999084472656,19.5,19.06999969482422,19.5,86996
2024-12-13,19.0,19.0,19.479999542236328,18.739999771118164,19.209999084472656,44201
2024-12-16,19.559999465942383,19.559999465942383,20.1299991607666,18.829999923706055,18.829999923706055,145246
2024-12-17,18.950000762939453,18.950000762939453,19.639999389648438,18.760000228881836,19.0,55572
2024-12-18,18.68000030517578,18.68000030517578,19.43000030517578,18.600000381469727,18.700000762939453,36704
2024-12-19,18.809999465942383,18.809999465942383,19.030000686645508,18.459999084472656,18.68000030517578,87725
2024-12-20,18.75,18.75,19.100000381469727,18.709999084472656,18.989999771118164,78285
2024-12-23,18.15999984741211,18.15999984741211,18.93000030517578,18.100000381469727,18.75,51379
2024-12-24,17.969999313354492,17.969999313354492,18.299999237060547,17.309999465942383,18.049999237060547,53752
2024-12-26,17.780000686645508,17.780000686645508,18.079999923706055,17.520000457763672,17.520000457763672,24032
2024-12-27,17.829999923706055,17.829999923706055,17.989999771118164,17.549999237060547,17.549999237060547,26303
2024-12-30,17.6299991607666,17.6299991607666,17.920000076293945,17.530000686645508,17.530000686645508,28077
2024-12-31,18.18000030517578,18.18000030517578,18.969999313354492,17.350000381469727,17.360000610351562,10838
2025-01-01,18.18000030517578,18.18000030517578,18.790000915527344,18.110000610351562,18.200000762939453,79880
2025-01-02,18.520000457763672,18.520000457763672,18.68000030517578,18.18000030517578,18.479999542236328,22543
2025-01-03,18.299999237060547,18.299999237060547,18.989999771118164,18.170000076293945,18.440000534057617,37626
2025-01-06,17.440000534057617,17.440000534057617,18.389999389648438,17.3799991607666,18.170000076293945,42507
2025-01-07,18.010000228881836,18.010000228881836,18.149999618530273,17.56999969482422,17.56999969482422,36407
2025-01-08,18.010000228881836,18.010000228881836,18.299999237060547,18.0,18.299999237060547,28787
2025-01-09,18.059999465942383,18.059999465942383,18.540000915527344,17.5,18.030000686645508,40184
2025-01-10,17.200000762939453,17.200000762939453,18.489999771118164,17.0,18.489999771118164,68615
2025-01-13,16.889999389648438,16.889999389648438,17.600000381469727,16.25,17.0,145736
2025-01-14,17.010000228881836,17.010000228881836,17.280000686645508,16.709999084472656,17.079999923706055,37281
2025-01-15,17.100000381469727,17.100000381469727,17.3799991607666,16.780000686645508,16.780000686645508,50716
2025-01-16,17.190000534057617,17.190000534057617,17.389999389648438,17.0,17.389999389648438,28612
2025-01-17,16.8799991607666,16.8799991607666,17.450000762939453,16.5,17.010000228881836,53823
2025-01-20,17.059999465942383,17.059999465942383,17.190000534057617,16.889999389648438,17.190000534057617,18396
2025-01-21,16.510000228881836,16.510000228881836,17.190000534057617,16.479999542236328,17.059999465942383,43094
2025-01-22,16.59000015258789,16.59000015258789,16.8700008392334,16.25,16.520000457763672,17317
2025-01-23,16.559999465942383,16.559999465942383,17.5,16.299999237060547,16.549999237060547,99971
2025-01-24,15.140000343322754,15.140000343322754,16.860000610351562,14.600000381469727,16.860000610351562,183985
2025-01-27,14.539999961853027,14.539999961853027,15.140000343322754,14.5,15.140000343322754,430577
2025-01-28,15.390000343322754,15.390000343322754,15.949999809265137,14.5,14.800000190734863,97490
2025-01-29,16.079999923706055,16.079999923706055,16.399999618530273,15.460000038146973,15.649999618530273,88820
2025-01-30,17.829999923706055,17.829999923706055,18.200000762939453,16.0,16.0,197686
2025-01-31,19.479999542236328,19.479999542236328,20.049999237060547,17.850000381469727,18.25,491499
2025-02-01,20.06999969482422,20.06999969482422,21.200000762939453,18.530000686645508,19.489999771118164,259985
2025-02-03,19.6200008392334,19.6200008392334,20.059999465942383,19.5,20.059999465942383,68335
2025-02-04,19.899999618530273,19.899999618530273,20.25,19.5,19.979999542236328,50915
2025-02-05,19.239999771118164,19.239999771118164,20.0,19.0,20.0,45610
2025-02-06,20.43000030517578,20.43000030517578,20.799999237060547,18.5,19.649999618530273,263486
2025-02-07,19.5,19.5,20.389999389648438,19.110000610351562,20.0,102317
2025-02-10,19.350000381469727,19.350000381469727,20.0,19.0,20.0,47454
2025-02-11,20.280000686645508,20.280000686645508,20.600000381469727,19.0,19.969999313354492,297837
2025-02-12,22.219999313354492,22.219999313354492,22.690000534057617,20.360000610351562,20.479999542236328,1727835
2025-02-13,22.610000610351562,22.610000610351562,23.5,21.200000762939453,22.18000030517578,603448
2025-02-14,22.43000030517578,22.43000030517578,23.399999618530273,21.920000076293945,23.399999618530273,244385
2025-02-17,22.520000457763672,22.520000457763672,23.25,22.0,22.950000762939453,221842
2025-02-18,22.950000762939453,22.950000762939453,23.489999771118164,22.0,23.489999771118164,308089
2025-02-19,25.260000228881836,25.260000228881836,27.0,23.010000228881836,23.290000915527344,874064
2025-02-20,27.1299991607666,27.1299991607666,29.0,25.06999969482422,25.5,1263696
2025-02-21,30.219999313354492,30.219999313354492,31.200000762939453,27.5,27.799999237060547,1149173
2025-02-24,36.2599983215332,36.2599983215332,36.2599983215332,31.299999237060547,32.0,5656998
2025-02-25,34.439998626708984,34.439998626708984,36.0,34.439998626708984,35.0,219078
2025-02-27,32.709999084472656,32.709999084472656,32.709999084472656,32.709999084472656,32.709999084472656,7447
2025-02-28,31.06999969482422,31.06999969482422,31.06999969482422,31.06999969482422,31.06999969482422,9825
2025-03-03,29.510000228881836,29.510000228881836,29.510000228881836,29.510000228881836,29.510000228881836,89287
2025-03-04,28.030000686645508,28.030000686645508,28.079999923706055,28.030000686645508,28.079999923706055,8686
2025-03-05,26.6200008392334,26.6200008392334,26.6200008392334,26.6200008392334,26.6200008392334,49996
2025-03-06,25.280000686645508,25.280000686645508,25.280000686645508,25.280000686645508,25.280000686645508,8457
2025-03-07,26.540000915527344,26.540000915527344,26.540000915527344,24.010000228881836,24.010000228881836,356098
2025-03-10,25.209999084472656,25.209999084472656,27.799999237060547,25.209999084472656,27.600000381469727,165006
2025-03-11,23.940000534057617,23.940000534057617,23.950000762939453,23.940000534057617,23.950000762939453,213297
2025-03-12,23.809999465942383,23.809999465942383,24.100000381469727,22.739999771118164,22.739999771118164,371268
2025-03-13,25.0,25.0,25.0,22.610000610351562,23.0,340195
2025-03-17,23.75,23.75,24.5,23.75,24.049999237060547,78720
2025-03-18,23.75,23.75,23.75,23.75,23.75,0
2025-03-19,25.459999084472656,25.459999084472656,25.459999084472656,24.260000228881836,25.450000762939453,63768
2025-03-20,26.729999542236328,26.729999542236328,26.729999542236328,26.5,26.639999389648438,20941
2025-03-21,28.059999465942383,28.059999465942383,28.059999465942383,27.049999237060547,27.700000762939453,98970
2025-03-24,29.459999084472656,29.459999084472656,29.459999084472656,28.5,29.399999618530273,15486
2025-03-25,30.93000030517578,30.93000030517578,30.93000030517578,30.93000030517578,30.93000030517578,44249
2025-03-26,31.540000915527344,31.540000915527344,31.540000915527344,30.309999465942383,31.540000915527344,119962
2025-03-27,32.16999816894531,32.16999816894531,32.16999816894531,32.16999816894531,32.16999816894531,30533
2025-03-28,32.810001373291016,32.810001373291016,32.810001373291016,32.810001373291016,32.810001373291016,28661
2025-04-01,33.459999084472656,33.459999084472656,33.459999084472656,33.459999084472656,33.459999084472656,16372
2025-04-02,34.119998931884766,34.119998931884766,34.119998931884766,34.119998931884766,34.119998931884766,30920
2025-04-03,34.79999923706055,34.79999923706055,34.79999923706055,34.79999923706055,34.79999923706055,22441
2025-04-04,35.4900016784668,35.4900016784668,35.4900016784668,35.4900016784668,35.4900016784668,37274
2025-04-07,36.189998626708984,36.189998626708984,36.189998626708984,36.189998626708984,36.189998626708984,155576
2025-04-08,36.90999984741211,36.90999984741211,36.90999984741211,36.90999984741211,36.90999984741211,36527
2025-04-09,37.63999938964844,37.63999938964844,37.63999938964844,37.63999938964844,37.63999938964844,46587
2025-04-11,38.38999938964844,38.38999938964844,38.38999938964844,38.38999938964844,38.38999938964844,30197
2025-04-15,39.150001525878906,39.150001525878906,39.150001525878906,39.150001525878906,39.150001525878906,31442
2025-04-16,39.93000030517578,39.93000030517578,39.93000030517578,39.93000030517578,39.93000030517578,23110
2025-04-17,40.720001220703125,40.720001220703125,40.720001220703125,40.720001220703125,40.720001220703125,21244
2025-04-21,39.900001525878906,39.900001525878906,39.900001525878906,39.900001525878906,39.900001525878906,281187
2025-04-22,39.099998474121094,39.099998474121094,39.099998474121094,39.099998474121094,39.099998474121094,272985
2025-04-23,38.310001373291016,38.310001373291016,38.310001373291016,38.310001373291016,38.310001373291016,29895
2025-04-24,37.540000915527344,37.540000915527344,37.560001373291016,37.540000915527344,37.540000915527344,523065
2025-04-25,36.779998779296875,36.779998779296875,36.779998779296875,36.779998779296875,36.779998779296875,62507
2025-04-28,36.040000915527344,36.040000915527344,36.779998779296875,36.040000915527344,36.040000915527344,261861
2025-04-29,35.310001373291016,35.310001373291016,35.310001373291016,35.310001373291016,35.310001373291016,49220
2025-04-30,34.599998474121094,34.599998474121094,34.599998474121094,34.599998474121094,34.599998474121094,23775
2025-05-02,33.900001525878906,33.900001525878906,33.900001525878906,33.900001525878906,33.900001525878906,8873
2025-05-05,32.20000076293945,32.20000076293945,33.88999938964844,32.20000076293945,32.5,864614
2025-05-06,30.59000015258789,30.59000015258789,30.59000015258789,30.59000015258789,30.59000015258789,124674
2025-05-07,30.829999923706055,30.829999923706055,32.11000061035156,29.059999465942383,29.059999465942383,364545
2025-05-08,32.36000061035156,32.36000061035156,32.369998931884766,31.889999389648438,32.369998931884766,199465
2025-05-09,33.95000076293945,33.95000076293945,33.970001220703125,30.739999771118164,31.0,161434
2025-05-12,35.63999938964844,35.63999938964844,35.63999938964844,35.380001068115234,35.63999938964844,135622
2025-05-13,37.41999816894531,37.41999816894531,37.41999816894531,37.41999816894531,37.41999816894531,87196
2025-05-14,37.7400016784668,37.7400016784668,39.290000915527344,35.599998474121094,39.290000915527344,1085952
2025-05-15,36.97999954223633,36.97999954223633,36.97999954223633,36.97999954223633,36.97999954223633,76078
2025-05-16,37.5,37.5,37.5,37.04999923706055,37.5,194376
2025-05-19,37.5,37.5,37.5,37.099998474121094,37.5,59507
2025-05-20,38.25,38.25,38.25,37.83000183105469,38.25,50707
2025-05-21,39.0099983215332,39.0099983215332,39.0099983215332,39.0099983215332,39.0099983215332,11730
2025-05-22,39.790000915527344,39.790000915527344,39.790000915527344,39.790000915527344,39.790000915527344,21454
2025-05-23,40.58000183105469,40.58000183105469,40.58000183105469,40.58000183105469,40.58000183105469,10670
2025-05-26,41.38999938964844,41.38999938964844,41.38999938964844,41.38999938964844,41.38999938964844,8638
2025-05-27,42.209999084472656,42.209999084472656,42.209999084472656,42.209999084472656,42.209999084472656,12604
2025-05-28,43.04999923706055,43.04999923706055,43.04999923706055,43.04999923706055,43.04999923706055,17800
2025-05-29,43.90999984741211,43.90999984741211,43.90999984741211,43.90999984741211,43.90999984741211,8293
2025-05-30,43.029998779296875,43.029998779296875,44.779998779296875,43.029998779296875,43.029998779296875,860078
2025-06-02,42.15999984741211,42.15999984741211,42.15999984741211,42.15999984741211,42.15999984741211,95544
2025-06-03,41.310001373291016,41.310001373291016,41.310001373291016,41.310001373291016,41.310001373291016,25827
2025-06-04,40.47999954223633,40.47999954223633,40.47999954223633,40.47999954223633,40.47999954223633,37980
2025-06-05,39.66999816894531,39.66999816894531,39.66999816894531,39.66999816894531,39.66999816894531,47978
2025-06-06,38.869998931884766,38.869998931884766,38.869998931884766,38.869998931884766,38.869998931884766,21615
2025-06-09,39.63999938964844,39.63999938964844,39.63999938964844,38.09000015258789,39.63999938964844,212381
2025-06-10,38.84000015258789,38.84000015258789,38.84000015258789,38.84000015258789,38.84000015258789,59702
2025-06-11,38.060001373291016,38.060001373291016,38.060001373291016,38.060001373291016,38.060001373291016,41232
2025-06-12,37.290000915527344,37.290000915527344,37.290000915527344,37.290000915527344,37.290000915527344,170845
2025-06-13,36.540000915527344,36.540000915527344,36.540000915527344,36.540000915527344,36.540000915527344,38358
2025-06-16,35.79999923706055,35.79999923706055,35.79999923706055,35.79999923706055,35.79999923706055,7095
2025-06-17,35.08000183105469,35.08000183105469,35.08000183105469,35.08000183105469,35.08000183105469,46973
2025-06-18,34.369998931884766,34.369998931884766,35.779998779296875,34.369998931884766,34.369998931884766,675387
2025-06-19,33.68000030517578,33.68000030517578,33.68000030517578,33.68000030517578,33.68000030517578,126661
2025-06-20,33.0,33.0,33.0,33.0,33.0,440710
2025-06-23,31.350000381469727,31.350000381469727,31.350000381469727,31.350000381469727,31.350000381469727,89928
2025-06-24,31.709999084472656,31.709999084472656,32.90999984741211,29.780000686645508,29.780000686645508,820012
2025-06-25,31.829999923706055,31.829999923706055,32.400001525878906,30.1200008392334,30.600000381469727,277473
2025-06-26,31.329999923706055,31.329999923706055,32.900001525878906,31.149999618530273,32.0,46820
2025-06-27,32.880001068115234,32.880001068115234,32.88999938964844,30.700000762939453,30.700000762939453,96552
2025-06-30,34.52000045776367,34.52000045776367,34.52000045776367,33.400001525878906,33.400001525878906,158910
2025-07-01,35.150001525878906,35.150001525878906,36.2400016784668,35.0099983215332,36.2400016784668,265582
2025-07-02,33.75,33.75,36.0,33.38999938964844,36.0,285130
2025-07-03,32.13999938964844,32.13999938964844,34.25,32.06999969482422,33.400001525878906,140776
2025-07-04,32.06999969482422,32.06999969482422,32.5,31.049999237060547,31.850000381469727,63461
2025-07-07,32.11000061035156,32.11000061035156,32.689998626708984,31.0,31.399999618530273,32457
2025-07-08,32.0,32.0,32.70000076293945,30.649999618530273,31.989999771118164,22583
2025-07-09,31.420000076293945,31.420000076293945,32.900001525878906,31.100000381469727,32.0,45210
2025-07-10,31.219999313354492,31.219999313354492,32.45000076293945,31.0,31.510000228881836,71143
2025-07-11,31.75,31.75,32.20000076293945,31.0,32.20000076293945,35786
2025-07-14,31.56999969482422,31.56999969482422,32.2400016784668,31.06999969482422,32.2400016784668,16558
2025-07-15,31.93000030517578,31.93000030517578,32.099998474121094,30.959999084472656,31.56999969482422,48930
2025-07-16,33.52000045776367,33.52000045776367,33.52000045776367,32.0,32.0,29399
2025-07-17,35.189998626708984,35.189998626708984,35.189998626708984,35.0,35.099998474121094,269257
2025-07-18,36.939998626708984,36.939998626708984,36.939998626708984,34.099998474121094,34.220001220703125,145115
2025-07-21,35.91999816894531,35.91999816894531,38.0,35.09000015258789,35.5099983215332,556017
2025-07-22,35.20000076293945,35.20000076293945,35.20000076293945,35.20000076293945,35.20000076293945,53617
2025-07-23,34.4900016784668,34.4900016784668,34.4900016784668,34.4900016784668,34.4900016784668,3055
2025-07-24,33.79999923706055,33.79999923706055,33.79999923706055,33.79999923706055,33.79999923706055,927
2025-07-25,33.119998931884766,33.119998931884766,33.119998931884766,33.119998931884766,33.119998931884766,25133
2025-07-28,32.45000076293945,32.45000076293945,32.45000076293945,32.45000076293945,32.45000076293945,17643
2025-07-29,33.09000015258789,33.09000015258789,33.09000015258789,32.45000076293945,33.09000015258789,95494
2025-07-30,33.04999923706055,33.04999923706055,33.689998626708984,33.0,33.04999923706055,14824
2025-07-31,33.45000076293945,33.45000076293945,33.45000076293945,33.0,33.45000076293945,17210
2025-08-01,33.599998474121094,33.599998474121094,33.599998474121094,33.599998474121094,33.599998474121094,24953
2025-08-04,34.27000045776367,34.27000045776367,34.27000045776367,33.0,34.27000045776367,14652
2025-08-05,34.880001068115234,34.880001068115234,34.91999816894531,34.880001068115234,34.880001068115234,13276
2025-08-06,34.18000030517578,34.18000030517578,34.880001068115234,34.18000030517578,34.18000030517578,1591
2025-08-07,33.4900016784668,33.4900016784668,33.9900016784668,33.4900016784668,33.4900016784668,118
2025-08-08,33.0,33.0,33.4900016784668,32.81999969482422,33.0,32051
2025-08-11,33.0,33.0,33.0,32.40999984741211,33.0,4094
2025-08-12,32.34000015258789,32.34000015258789,33.0,32.34000015258789,32.34000015258789,4823
2025-08-13,31.700000762939453,31.700000762939453,32.5,31.700000762939453,31.700000762939453,24098
2025-08-14,31.059999465942383,31.059999465942383,31.110000610351562,31.059999465942383,31.059999465942383,3650
2025-08-18,30.43000030517578,30.43000030517578,31.209999084472656,30.43000030517578,30.43000030517578,14696
2025-08-19,31.030000686645508,31.030000686645508,31.030000686645508,30.610000610351562,31.030000686645508,53106
2025-08-20,31.600000381469727,31.600000381469727,31.649999618530273,31.489999771118164,31.600000381469727,16197
2025-08-21,32.22999954223633,32.22999954223633,32.22999954223633,32.0,32.22999954223633,24766
2025-08-22,32.869998931884766,32.869998931884766,32.869998931884766,32.869998931884766,32.869998931884766,2601
2025-08-25,33.0,33.0,33.52000045776367,32.97999954223633,33.0,46052
2025-08-26,32.34000015258789,32.34000015258789,32.34000015258789,32.34000015258789,32.34000015258789,47021
2025-08-27,32.34000015258789,32.34000015258789,32.34000015258789,32.34000015258789,32.34000015258789,0
2025-08-28,31.690000534057617,31.690000534057617,31.75,31.690000534057617,31.690000534057617,13156
2025-08-29,31.100000381469727,31.100000381469727,31.600000381469727,31.049999237060547,31.100000381469727,41353
2025-09-01,31.15999984741211,31.15999984741211,32.20000076293945,29.6299991607666,31.40999984741211,49878
2025-09-02,30.170000076293945,30.170000076293945,31.520000457763672,30.0,30.149999618530273,27743
2025-09-03,30.18000030517578,30.18000030517578,30.68000030517578,29.149999618530273,30.0,34576
2025-09-04,29.530000686645508,29.530000686645508,30.899999618530273,29.200000762939453,29.950000762939453,30932
2025-09-05,29.610000610351562,29.610000610351562,30.0,29.0,29.56999969482422,16345
2025-09-08,30.270000457763672,30.270000457763672,31.06999969482422,29.5,29.610000610351562,8810
2025-09-09,30.0,30.0,30.8700008392334,29.260000228881836,29.799999237060547,47216
2025-09-10,30.5,30.5,31.0,29.399999618530273,29.510000228881836,23235
2025-09-11,30.600000381469727,30.600000381469727,31.0,29.5,29.899999618530273,20208
2025-09-12,31.030000686645508,31.030000686645508,31.40999984741211,30.209999084472656,30.260000228881836,16174
2025-09-15,33.970001220703125,33.970001220703125,37.22999954223633,32.5,32.5,898722
2025-09-16,34.869998931884766,34.869998931884766,35.9900016784668,33.599998474121094,34.0,149365
2025-09-17,32.849998474121094,32.849998474121094,35.0,32.20000076293945,35.0,112132
2025-09-18,34.5,34.5,36.18000030517578,32.2599983215332,32.79999923706055,132921
2025-09-19,34.790000915527344,34.790000915527344,35.95000076293945,33.0,34.4900016784668,65706
2025-09-22,33.130001068115234,33.130001068115234,35.45000076293945,33.0099983215332,35.45000076293945,36939
2025-09-23,32.86000061035156,32.86000061035156,34.599998474121094,32.4900016784668,33.0,572020
2025-09-24,32.20000076293945,32.20000076293945,33.900001525878906,32.0,33.5,57140
2025-09-25,32.029998779296875,32.029998779296875,33.060001373291016,31.299999237060547,33.0099983215332,36075
2025-09-26,31.3799991607666,31.3799991607666,33.029998779296875,31.200000762939453,32.029998779296875,23145
2025-09-29,30.93000030517578,30.93000030517578,33.0,30.549999237060547,30.549999237060547,57589
2025-09-30,30.959999084472656,30.959999084472656,31.950000762939453,30.549999237060547,30.549999237060547,28094
2025-10-01,30.549999237060547,30.549999237060547,31.09000015258789,29.200000762939453,30.100000381469727,38738
2025-10-03,33.099998474121094,33.099998474121094,33.5,29.5,29.5,85307
2025-10-06,32.52000045776367,32.52000045776367,33.790000915527344,32.5,32.5099983215332,37376
2025-10-07,32.2599983215332,32.2599983215332,33.0,32.0099983215332,32.099998474121094,35119
